"Time [ms]","Moving1.Torque [NewtonMeter]"
0,-0.322777744445683
0.01,-0.308011450032585
0.02,-0.288814376146614
0.03,-0.269679910699334
0.04,-0.25054114106662
0.05,-0.221634523668777
0.06,-0.158956694705135
0.07,-0.0632613933903111
0.08,0.0560608694356495
0.09,0.184881735760077
0.1,0.312174418532452
0.11,0.441529466397381
0.12,0.592931828405622
0.13,0.769896948973545
0.14,0.967266907266753
0.15,1.1652998145256
0.16,1.33722363144592
0.17,1.50805462479978
0.18,1.6631638512137
0.19,1.79588466010027
0.2,1.90910744539219
0.21,2.01843678747553
0.22,2.10238535499948
0.23,2.16101167397509
0.24,2.19943947440507
0.25,2.24688802795892
0.26,2.34300923795334
0.27,2.42279008904194
0.28,2.50522710495804
0.29,2.5926071401778
0.3,2.68046844772598
0.31,2.76111134690766
0.32,2.84702734900138
0.33,2.95673865431703
0.34,3.10747662307297
0.35,3.29265872218747
0.36,3.47125028207744
0.37,3.649666711137
0.38,3.82944683808757
0.39,4.01134855941815
0.4,4.16182334277265
0.41,4.24405176432707
0.42,4.33696819125755
0.43,4.45500298479175
0.440000000000001,4.60677041140687
0.450000000000001,4.80059456260503
0.460000000000001,5.03144615652228
0.470000000000001,5.25652301773438
0.480000000000001,5.45702048287023
0.490000000000001,5.62458536583959
0.500000000000001,5.79574361690954
0.510000000000001,5.99986959225166
0.520000000000001,6.18194723686691
0.530000000000001,6.32792011366328
0.540000000000001,6.4426899584439
0.550000000000001,6.55631063006537
0.560000000000001,6.67506005456129
0.570000000000001,6.82934526349257
0.580000000000001,7.03953192668347
0.590000000000001,7.31169742841856
0.600000000000001,7.53982319878861
0.610000000000001,7.70184372161636
0.620000000000001,7.91866025574804
0.630000000000001,8.19715694596931
0.640000000000001,8.529361562879
0.650000000000001,8.90174218753746
0.660000000000001,9.30696716982385
0.670000000000001,9.73181107133378
0.680000000000001,10.159315548986
0.690000000000001,10.5717077319863
0.700000000000001,10.987828010293
0.710000000000001,11.4226700829342
0.720000000000001,11.8619010560654
0.730000000000001,12.3053399792144
0.740000000000001,12.7477810898144
0.750000000000001,13.1951709071965
0.760000000000001,13.6520727362105
0.770000000000001,14.1290138173652
0.780000000000001,14.6404652036004
0.790000000000001,15.1868791165767
0.800000000000001,15.6462524354868
0.810000000000001,16.0628197476028
0.820000000000002,16.5094962523368
0.830000000000002,16.9885126355844
0.840000000000002,17.4909827677791
0.850000000000002,17.9958627386041
0.860000000000002,18.5027966175134
0.870000000000002,19.0068524297739
0.880000000000002,19.4967693478657
0.890000000000002,19.9627842720425
0.900000000000002,20.4662060181438
0.910000000000002,20.9658687941226
0.920000000000002,21.4502576582729
0.930000000000002,21.943868281512
0.940000000000002,22.4711642264836
0.950000000000002,23.0124267799475
0.960000000000002,23.5719767669574
0.970000000000002,24.159590347036
0.980000000000002,24.7695400278872
0.990000000000002,25.3884709475025
1,25.9279130616594
1.01,26.4715041975214
1.02,27.0415360488381
1.03,27.6285817654411
1.04,28.2154038008819
1.05,28.8296881295508
1.06,29.4384078897826
1.07,30.0010925639532
1.08,30.4985995544547
1.09,30.9273143972385
1.1,31.3938318656858
1.11,31.8196343188726
1.12,32.1855405536177
1.13,32.5013868146019
1.14,32.8013978134673
1.15,33.1454843574571
1.16,33.4872513154753
1.17,33.8387990710038
1.18,34.1994833294463
1.19,34.5589059919477
1.2,34.8033524660699
1.21,35.0252841879917
1.22,35.2635251039808
1.23,35.5446424799563
1.24,35.8708727280734
1.25,36.1917221086027
1.26,36.5350035799263
1.27,36.8473652496543
1.28,37.1000854071219
1.29,37.2994878082576
1.3,37.6349345183494
1.31,37.9431028438742
1.32,38.2089129755953
1.33,38.4293347667585
1.34,38.6438258472736
1.35,38.969604701563
1.36,39.3514675965164
1.37,39.8125644048017
1.38,40.3489966446805
1.39,40.9024344266485
1.4,41.1767738593598
1.41,41.4892899185711
1.42,41.869680032406
1.43,42.3282221156665
1.44,42.8454395353256
1.45,43.3941328893768
1.46,43.9633838882409
1.47,44.5563983930313
1.48,45.158607792725
1.49,45.7482325730462
1.5,46.3282120900425
1.51,46.9091960898731
1.52,47.4996316844092
1.53,48.0939819345342
1.54,48.6826114029975
1.55,49.2816046440705
1.56,49.9233108752417
1.57,50.6060219691082
1.58,51.3120273476857
1.59,51.9619463107528
1.6,52.4599578209073
1.61,52.9779470897696
1.62,53.5390442568823
1.63,54.1573024699175
1.64,54.8392174970484
1.65,55.5775985200457
1.66,56.2909072072168
1.67,56.9675115420726
1.68,57.6214874176009
1.69,58.2897607495607
1.7,58.986166334139
1.71,59.6668495838779
1.72,60.3499964688308
1.73,61.0587213684881
1.74,61.7809062663254
1.75,62.4969848164898
1.76,63.21713069363
1.77,63.9222130024357
1.78,64.5949096274029
1.79,65.3096050650314
1.8,66.102123668173
1.81,66.8708088794462
1.82,67.6239103548942
1.83,68.3648824002899
1.84,69.0864968841653
1.85,69.8055430284041
1.86,70.5461178568764
1.87,71.2902306583683
1.88,72.0144702904221
1.89,72.7102546117696
1.9,73.401285974063
1.91,74.0852669498237
1.92,74.7583024030093
1.93,75.4180030054092
1.94,76.0980878893914
1.95,76.7958173066016
1.96,77.4891603410458
1.97,78.177243480911
1.98,78.8484142924109
1.99,79.5173611587002
2,80.1675013900927
2.01,80.7887599368018
2.02,81.3932707875744
2.03,81.9854491184987
2.04,82.5396598052141
2.05,83.0446007666462
2.06,83.514585159535
2.07,83.9619618603476
2.08,84.3947826179847
2.09,84.8048418180793
2.1,85.1891011906396
2.11,85.5587032568262
2.12,85.9167155492915
2.13,86.2694694767054
2.14,86.6497195648106
2.15,87.0441387492123
2.16,87.4195546101138
2.17,87.7585231723605
2.18,88.0609185127913
2.19,88.4935806385678
2.2,88.9731021854437
2.21,89.4605606230874
2.22000000000001,89.9676333649584
2.23000000000001,90.5094810557275
2.24000000000001,91.0676432901515
2.25000000000001,91.6476925579031
2.26000000000001,92.2790474081168
2.27000000000001,92.961731565638
2.28000000000001,93.6859909642948
2.29000000000001,94.4533338569262
2.30000000000001,95.2611496497827
2.31000000000001,96.0950223561004
2.32000000000001,96.9471178006599
2.33000000000001,97.821862739488
2.34000000000001,98.7110770484649
2.35000000000001,99.6457236590606
2.36000000000001,100.614830327553
2.37000000000001,101.593913823013
2.38000000000001,102.564668451655
2.39000000000001,103.360997181564
2.40000000000001,104.163106674406
2.41000000000001,104.992287398755
2.42000000000001,105.851212270547
2.43000000000001,106.729175273149
2.44000000000001,107.618322707959
2.45000000000001,108.484897524413
2.46000000000001,109.335498558286
2.47000000000001,110.195016711279
2.48000000000001,111.081955082198
2.49000000000001,111.978371362797
2.50000000000001,112.902491231064
2.51000000000001,113.860819968815
2.52000000000001,114.863776267635
2.53000000000001,115.887190739112
2.54000000000001,116.872269895184
2.55000000000001,117.861454792163
2.56000000000001,118.868479087108
2.57000000000001,119.898210287622
2.58000000000001,120.935480388275
2.59000000000001,121.961983301486
2.60000000000001,122.981956927898
2.61000000000001,123.971335865821
2.62000000000001,124.923240631462
2.63000000000001,125.866950921027
2.64000000000001,126.835755507201
2.65000000000001,127.794449101886
2.66000000000001,128.716817462057
2.67000000000001,129.60003620516
2.68000000000001,130.457111500948
2.69000000000001,131.287439404052
2.70000000000001,132.079985184336
2.71000000000001,132.823870310809
2.72000000000001,133.524964012756
2.73000000000001,134.183537316963
2.74000000000001,134.760941016396
2.75000000000001,135.24793245571
2.76000000000001,135.628510455391
2.77000000000001,135.909934179491
2.78000000000001,136.233994744843
2.79000000000001,136.936406409955
2.80000000000001,137.573027962922
2.81000000000001,138.11976451979
2.82000000000001,138.571448615231
2.83000000000001,138.953041494937
2.84000000000001,139.295505187512
2.85000000000001,139.670525624698
2.86000000000001,140.100435504863
2.87000000000001,140.582658203268
2.88000000000001,141.056433793315
2.89000000000001,141.445854847646
2.90000000000001,141.885016137408
2.91000000000001,142.384892713915
2.92000000000001,142.929813333504
2.93000000000001,143.4729289907
2.94000000000001,143.968565773874
2.95000000000001,144.374681989185
2.96000000000001,144.687627757016
2.97000000000001,144.933270387486
2.98000000000001,145.287988971269
2.99000000000001,145.8253530764
3.00000000000001,146.291167620467
3.01000000000001,146.684383248254
3.02000000000001,147.011604179081
3.03000000000001,147.319991322393
3.04000000000001,147.636503410581
3.05000000000001,147.987858278904
3.06000000000001,148.401624368237
3.07000000000001,148.874270436972
3.08000000000001,149.329915210638
3.09000000000001,149.76182184122
3.10000000000001,150.254094992981
3.11000000000001,150.807137355518
3.12000000000001,151.404499153078
3.13000000000001,152.038121219814
3.14000000000001,152.692794368656
3.15000000000001,153.311805558748
3.16000000000001,153.866236394051
3.17000000000001,154.349784941663
3.18000000000001,155.033178887261
3.19000000000001,155.898021772609
3.20000000000001,156.712229381805
3.21000000000001,157.467467207043
3.22000000000001,158.180922991375
3.23000000000001,158.840353521065
3.24000000000001,159.479048481045
3.25000000000001,160.176656628364
3.26000000000001,160.944434515425
3.27000000000001,161.765289845827
3.28000000000001,162.468951466021
3.29000000000001,163.131436183755
3.30000000000001,163.852453432069
3.31000000000001,164.625218055313
3.32000000000001,165.414252052669
3.33000000000001,166.168103690271
3.34000000000001,166.85569296985
3.35000000000001,167.468408927449
3.36000000000001,168.034554561878
3.37000000000001,168.594039558587
3.38000000000001,169.393299695237
3.39000000000001,170.281323086021
3.40000000000001,171.139435293691
3.41000000000001,171.962188437718
3.42000000000001,172.772602876063
3.43000000000001,173.553470799463
3.44000000000001,174.37117664028
3.45000000000001,175.215408177287
3.46000000000001,176.055613345996
3.47000000000001,176.893283124465
3.48000000000001,177.713526901058
3.49000000000001,178.525243453502
3.50000000000001,179.330033152867
3.51000000000001,180.135095763508
3.52000000000001,180.94709902239
3.53000000000001,181.743196186376
3.54000000000001,182.493789322296
3.55000000000001,183.144932867736
3.56000000000001,183.668434918558
3.57000000000001,184.068420360588
3.58000000000001,184.694412581524
3.59000000000001,185.292335341094
3.60000000000001,185.785460394479
3.61000000000001,186.167460170621
3.62000000000001,186.461367808245
3.63000000000001,186.715271996674
3.64000000000001,186.923064304191
3.65000000000001,187.16626915629
3.66000000000001,187.453443098664
3.67000000000001,187.765051752464
3.68000000000001,187.931855121466
3.69000000000001,188.106267618174
3.70000000000001,188.31146248202
3.71000000000001,188.552586763044
3.72000000000001,188.807252343754
3.73000000000001,189.079329820759
3.74000000000001,189.321445471355
3.75000000000001,189.547651453441
3.76000000000001,189.794559393788
3.77000000000001,190.093066123655
3.78000000000001,190.459599761913
3.79000000000001,190.86057406444
3.80000000000001,191.288060893553
3.81000000000001,191.735591243013
3.82000000000001,192.208193191084
3.83000000000001,192.662301192149
3.84000000000001,193.14581673079
3.85000000000001,193.648118965195
3.86000000000001,194.147354989916
3.87000000000001,194.636508918721
3.88000000000001,195.114329389429
3.89000000000001,195.57024002169
3.90000000000001,196.012840112441
3.91000000000001,196.46108031987
3.92000000000001,196.919864553306
3.93000000000001,197.388023799732
3.94000000000001,197.860993106402
3.95000000000001,198.307043852532
3.96000000000001,198.70571795232
3.97000000000001,199.09034811708
3.98000000000001,199.621167074483
3.99000000000001,200.127706317121
4.00000000000001,200.596452629681
4.01,201.028478348043
4.02,201.439448445649
4.03,201.80530457472
4.04,202.199036794067
4.05,202.629380466802
4.06,203.078095800684
4.07,203.525097297388
4.08,203.961042322143
4.09,204.41268373718
4.1,204.902283201737
4.11,205.432566180459
4.12,205.980820298136
4.13,206.541980333449
4.14,207.087351683536
4.15,207.608305777907
4.16,208.100302224098
4.17,208.610678749562
4.18,209.218834162173
4.19,209.818899542158
4.2,210.388395408189
4.21,210.916057991438
4.22,211.406374633881
4.23,211.869903771757
4.24,212.337422202985
4.25,212.810084546993
4.25999999999999,213.285092313201
4.26999999999999,213.720166388035
4.27999999999999,214.091169338672
4.28999999999999,214.457805097979
4.29999999999999,214.842949059735
4.30999999999999,215.267870109947
4.31999999999999,215.6889614349
4.32999999999999,216.039193152016
4.33999999999999,216.2958563511
4.34999999999999,216.452862015874
4.35999999999999,216.525768614417
4.36999999999999,216.767677471038
4.37999999999999,217.182795228707
4.38999999999999,217.515536682901
4.39999999999999,217.740516206798
4.40999999999999,217.832669111265
4.41999999999999,217.802831974319
4.42999999999999,217.736820026126
4.43999999999999,217.71627875802
4.44999999999999,217.721273890138
4.45999999999999,217.711867340355
4.46999999999999,217.653635635151
4.47999999999999,217.541834189299
4.48999999999999,217.409680208273
4.49999999999998,217.284697991493
4.50999999999998,217.173580328092
4.51999999999998,217.044700206221
4.52999999999998,216.907870291452
4.53999999999998,216.74534857108
4.54999999999998,216.528583220097
4.55999999999998,216.232022867634
4.56999999999998,216.081893928426
4.57999999999998,215.97471084117
4.58999999999998,215.806597635765
4.59999999999998,215.613772180852
4.60999999999998,215.436874975139
4.61999999999998,215.318502254028
4.62999999999998,215.227244462722
4.63999999999998,215.164535385767
4.64999999999998,215.115461018551
4.65999999999998,215.060048039237
4.66999999999998,214.984092779925
4.67999999999998,214.91346811565
4.68999999999998,214.86190785685
4.69999999999998,214.82962901844
4.70999999999998,214.806364618888
4.71999999999998,214.768819069753
4.72999999999998,214.728842663772
4.73999999999998,214.683150570777
4.74999999999997,214.624827700169
4.75999999999997,214.540419077928
4.76999999999997,214.625169783201
4.77999999999997,214.673828402857
4.78999999999997,214.668613415342
4.79999999999997,214.642181637491
4.80999999999997,214.619398712002
4.81999999999997,214.621916706084
4.82999999999997,214.658454604369
4.83999999999997,214.72513100217
4.84999999999997,214.783693079107
4.85999999999997,214.794388462393
4.86999999999997,214.80910073264
4.87999999999997,214.801985590365
4.88999999999997,214.784221891039
4.89999999999997,214.779041686814
4.90999999999997,214.806738064783
4.91999999999997,214.842617782613
4.92999999999997,214.881252794969
4.93999999999997,214.919717309093
4.94999999999997,214.953871810685
4.95999999999997,214.973796949813
4.96999999999997,215.129552685954
4.97999999999997,215.283998166346
4.98999999999996,215.450961167904
4.99999999999996,215.625750020605
5.00999999999996,215.797936207745
5.01999999999996,216.000557154427
5.02999999999996,216.229525910668
5.03999999999996,216.487493121255
5.04999999999996,216.753804062871
5.05999999999996,217.005418940853
5.06999999999996,217.31918642804
5.07999999999996,217.587562546635
5.08999999999996,217.85102598071
5.09999999999996,218.160853635267
5.10999999999996,218.542413705488
5.11999999999996,218.872577136815
5.12999999999996,219.227663146224
5.13999999999996,219.553629748283
5.14999999999996,219.806048079026
5.15999999999996,219.986969475862
5.16999999999996,220.302986461365
5.17999999999996,220.551312634802
5.18999999999996,220.746919209071
5.19999999999996,220.901765488033
5.20999999999996,221.023271566685
5.21999999999996,221.134805380174
5.22999999999996,221.22532190619
5.23999999999995,221.286502225263
5.24999999999995,221.300467414554
5.25999999999995,221.263150698593
5.26999999999995,221.202816899168
5.27999999999995,221.092430691466
5.28999999999995,220.960457546894
5.29999999999995,220.834591784504
5.30999999999995,220.736715975342
5.31999999999995,220.663880943976
5.32999999999995,220.569485027649
5.33999999999995,220.445755470003
5.34999999999995,220.281239421222
5.35999999999995,220.135254722836
5.36999999999995,220.087121834454
5.37999999999995,219.963876745567
5.38999999999995,219.79990872327
5.39999999999995,219.622827847706
5.40999999999995,219.434378559099
5.41999999999995,219.242163902785
5.42999999999995,219.081843556279
5.43999999999995,218.914966488455
5.44999999999995,218.699153778803
5.45999999999995,218.463323280853
5.46999999999995,218.265649178431
5.47999999999995,218.028465908617
5.48999999999994,217.757694317927
5.49999999999994,217.467904266195
5.50999999999994,217.1826315236
5.51999999999994,216.892928044967
5.52999999999994,216.582507626175
5.53999999999994,216.257961236384
5.54999999999994,215.914670364719
5.55999999999994,215.55480242417
5.56999999999994,215.164890320113
5.57999999999994,214.75733843454
5.58999999999994,214.365683791385
5.59999999999994,214.006014691759
5.60999999999994,213.653961189345
5.61999999999994,213.310378735986
5.62999999999994,213.000313899104
5.63999999999994,212.698695566886
5.64999999999994,212.375731669681
5.65999999999994,212.04816574382
5.66999999999994,211.722124221414
5.67999999999994,211.381578371856
5.68999999999994,211.044254745193
5.69999999999994,210.727700653906
5.70999999999994,210.44814652108
5.71999999999994,210.201897054974
5.72999999999993,209.964647937465
5.73999999999993,209.70907956843
5.74999999999993,209.411019541656
5.75999999999993,209.105881187202
5.76999999999993,208.808305256863
5.77999999999993,208.50912124646
5.78999999999993,208.219781791833
5.79999999999993,207.937674837396
5.80999999999993,207.654193315177
5.81999999999993,207.368136608384
5.82999999999993,207.08725170295
5.83999999999993,206.811886979513
5.84999999999993,206.531490817804
5.85999999999993,206.275985674641
5.86999999999993,206.01283816811
5.87999999999993,205.749138784586
5.88999999999993,205.519586448365
5.89999999999993,205.342442787045
5.90999999999993,205.139184380786
5.91999999999993,204.912145732433
5.92999999999993,204.659959792078
5.93999999999993,204.364352286922
5.94999999999993,204.011493412125
5.95999999999993,203.890775315538
5.96999999999993,203.793418370164
5.97999999999992,203.631718640539
5.98999999999992,203.42757264821
5.99999999999992,203.212604448491
6.00999999999992,202.984698140901
6.01999999999992,202.803962258031
6.02999999999992,202.648285663914
6.03999999999992,202.475313836916
6.04999999999992,202.253481117239
6.05999999999992,202.009195839356
6.06999999999992,201.740150715874
6.07999999999992,201.440420273879
6.08999999999992,201.102502169024
6.09999999999992,200.71734855873
6.10999999999992,200.322569738783
6.11999999999992,199.867949249523
6.12999999999992,199.371443557157
6.13999999999992,198.847109446779
6.14999999999992,198.293640679123
6.15999999999992,197.905202427243
6.16999999999992,197.447314361434
6.17999999999992,196.943762309109
6.18999999999992,196.435389275089
6.19999999999992,195.942600016939
6.20999999999992,195.452187831311
6.21999999999991,194.95606347913
6.22999999999991,194.453880097223
6.23999999999991,193.936140889423
6.24999999999991,193.388411363446
6.25999999999991,192.894562717813
6.26999999999991,192.387794530119
6.27999999999991,191.88531810487
6.28999999999991,191.398271254466
6.29999999999991,190.92520356517
6.30999999999991,190.461523941307
6.31999999999991,190.022848093854
6.32999999999991,189.586017881587
6.33999999999991,189.116065494855
6.34999999999991,188.587669503267
6.35999999999991,188.032426533597
6.36999999999991,187.44549962342
6.37999999999991,186.843594375701
6.38999999999991,186.240545017956
6.39999999999991,185.647045392022
6.40999999999991,185.07048263149
6.41999999999991,184.478437885718
6.42999999999991,183.884676976087
6.43999999999991,183.289813348546
6.44999999999991,182.692922270317
6.45999999999991,182.123965282879
6.4699999999999,181.542929826105
6.4799999999999,180.969006558812
6.4899999999999,180.411547323958
6.4999999999999,179.854136511477
6.5099999999999,179.287649716903
6.5199999999999,178.732924677955
6.5299999999999,178.159555050891
6.5399999999999,177.536370506472
