Time [ms],Moving1.Torque [NewtonMeter] - a='15mm',Moving1.Torque [NewtonMeter] - a='20mm',Moving1.Torque [NewtonMeter] - a='25mm',Moving1.Torque [NewtonMeter] - a='30mm',Moving1.Torque [NewtonMeter] - a='35mm',Moving1.Torque [NewtonMeter] - a='40mm',Moving1.Torque [NewtonMeter] - a='45mm',Moving1.Torque [NewtonMeter] - a='50mm',Moving1.Torque [NewtonMeter] - a='55mm',Moving1.Torque [NewtonMeter] - a='60mm',Moving1.Torque [NewtonMeter] - a='65mm',Moving1.Torque [NewtonMeter] - a='70mm',Moving1.Torque [NewtonMeter] - a='75mm'
0,-0.245307888,-0.331770388,-0.046651801,0.029205985,0.054954294,0.004942648,0.056844704,-0.035229246,-0.061136721,-0.135657037,0.2221083,0.083225554,-0.239772707
0.01,-0.184954468,-0.284566268,0.017361819,0.181025247,0.302727443,0.266690704,0.392962043,0.120823216,0.108153693,0.016809689,0.697038054,0.56853733,0.394665352
0.02,-0.101382424,-0.204263608,0.123061737,0.363303966,0.550372972,0.545011944,0.740885607,0.285145647,0.28571854,0.184559001,1.144659538,1.035068785,1.027122453
0.03,0.023825658,-0.071237077,0.281026719,0.579326574,0.812804234,0.842973288,1.103655476,0.458625978,0.474579617,0.371730383,1.572309772,1.489879531,1.675139174
0.04,0.205559614,0.132053259,0.503285859,0.833965225,1.101564503,1.153639325,1.483484756,0.642051816,0.676630116,0.578914073,1.994920028,1.945107485,2.319492463
0.05,0.449666891,0.410347821,0.793363627,1.128984783,1.419600062,1.50953094,1.851707717,0.834552117,0.89188464,0.806321725,2.426627046,2.41122901,2.969363581
0.06,0.699505482,0.70231308,1.10139702,1.429735499,1.738488252,1.876618155,2.235277512,1.033767116,1.117622721,1.042609465,2.885304048,2.896644789,3.623619024
0.07,0.952909587,1.003062137,1.423824558,1.735159025,2.051397611,2.248950091,2.61620653,1.235300767,1.348095691,1.281966614,3.353693347,3.39497171,4.286198052
0.08,1.251692344,1.341595106,1.777191837,2.066314992,2.373767267,2.631073991,2.999391262,1.418463095,1.580708375,1.523949557,3.826756028,3.898592061,4.958088093
0.09,1.582987928,1.699522133,2.133034914,2.407257798,2.70877756,3.009628648,3.380485952,1.617157586,1.812267517,1.77876501,4.289691509,4.403096685,5.655272337
0.1,1.932103243,2.062642178,2.478987314,2.745682511,3.051654776,3.381542245,3.758632839,1.817217019,2.041117878,2.035531002,4.747248482,4.904543365,6.338002963
0.11,2.287388747,2.42288529,2.819013394,3.07527282,3.39999768,3.752290667,4.137686541,2.018049734,2.272017262,2.30682625,5.183350373,5.402513086,7.019126298
0.12,2.595195226,2.757017835,3.175488197,3.414515347,3.733505361,4.133475561,4.526311747,2.267167214,2.564429586,2.609850163,5.680465607,5.934216445,7.696057882
0.13,2.928123142,3.114265581,3.543372542,3.759282176,4.075411643,4.517302775,4.916325375,2.520781659,2.841559737,2.925840678,6.158677448,6.467908792,8.376269483
0.14,3.272196421,3.486262303,3.911840873,4.110232432,4.429750354,4.903916032,5.308664264,2.773180027,3.129097295,3.260893519,6.624924919,7.001162375,9.068288494
0.15,3.603831884,3.856442448,4.270388412,4.462091952,4.79375334,5.291043663,5.70327672,3.023261145,3.419331321,3.619304418,7.068812207,7.532407568,9.760444682
0.16,3.941387304,4.202029704,4.606702751,4.803201431,5.152701199,5.669298753,6.092326522,3.2808415,3.71758368,3.996924141,7.490450943,8.060695134,10.4450719
0.17,4.254054961,4.510257192,4.917766011,5.114376782,5.486356141,6.01599922,6.448894427,3.529685899,4.00401541,4.365064907,7.890334293,8.573189083,11.11056441
0.18,4.533240844,4.790341059,5.201509859,5.394540094,5.789292687,6.328467492,6.770067921,3.783686819,4.292770836,4.718177937,8.291594401,9.070574574,11.76553564
0.19,4.768637499,5.038394814,5.455521261,5.647768999,6.058594498,6.607951615,7.06640701,4.065632211,4.602707094,5.067725831,8.713933707,9.577555345,12.42731417
0.2,4.961506708,5.25169231,5.692969763,5.880311262,6.292543789,6.860976823,7.334538841,4.378158433,4.936436563,5.420752688,9.160130404,10.09763979,13.10189778
0.21,5.114981353,5.432557,5.924153989,6.112187839,6.497126572,7.108595619,7.590284755,4.719853804,5.295675475,5.803773092,9.623514687,10.63879868,13.78840082
0.22,5.262477123,5.603158055,6.169846059,6.358761443,6.701063805,7.359750619,7.864251701,5.080935986,5.680598073,6.23052311,10.08842898,11.21707542,14.48188501
0.23,5.622910287,5.954471609,6.466753292,6.67582536,7.074003144,7.706720829,8.225466141,5.384973166,6.036467089,6.669171742,10.49215533,11.76497964,15.18403884
0.24,5.940483497,6.260599587,6.739898911,6.970726832,7.406618384,8.035559864,8.562892613,5.690479038,6.395591613,7.146366139,10.89957539,12.32517424,15.88524799
0.25,6.226420309,6.534634499,6.993071947,7.2239989,7.708649582,8.341089168,8.879086718,6.015988121,6.770214549,7.642540851,11.32128225,12.90317302,16.5947076
0.26,6.494202918,6.793764562,7.237185362,7.474589359,7.987630483,8.623647376,9.172473257,6.377283776,7.171943482,8.141474335,11.76667273,13.49652781,17.317501
0.27,6.75774735,7.054571921,7.495793448,7.724464939,8.226908862,8.892566508,9.447418002,6.776701843,7.603829078,8.636474157,12.23116146,14.09814583,18.05295423
0.28,6.982286801,7.284495076,7.737643978,7.950629067,8.44403625,9.137568351,9.696361969,7.184291235,8.041957062,9.118294461,12.69039014,14.68136703,18.76645431
0.29,7.182465376,7.490322528,7.973145619,8.173285952,8.640887418,9.351506444,9.933034372,7.598672374,8.484492444,9.600948459,13.14359174,15.26072322,19.46267457
0.3,7.395148266,7.697687883,8.207414335,8.408433503,8.846449883,9.583128987,10.17846025,8.023126848,8.940745709,10.10545099,13.59718309,15.84811779,20.16193129
0.31,7.608456445,7.897199347,8.421247093,8.639424851,9.058825707,9.808831861,10.42547902,8.447246669,9.404932545,10.63009287,14.05655571,16.43381377,20.86659724
0.32,7.8121649,8.086053944,8.598950314,8.85014351,9.270587854,10.02172312,10.65933375,8.864729339,9.87088555,11.17287306,14.50704111,17.01420084,21.57954909
0.33,7.998548109,8.255880867,8.751975747,9.03765209,9.473358339,10.22510354,10.88396523,9.280625165,10.34135552,11.7329107,14.95391295,17.59255612,22.3008265
0.34,8.141192501,8.414671502,8.965743461,9.249920839,9.654352961,10.46280094,11.12369777,9.743797086,10.85790015,12.28849397,15.41947211,18.21443109,23.02138291
0.35,8.2758417,8.563478426,9.157681272,9.454343169,9.838014378,10.69348972,11.36258538,10.20039387,11.37313477,12.86426762,15.87958016,18.8329094,23.74669899
0.36,8.401386299,8.701501725,9.312433112,9.642848152,10.0248882,10.90634282,11.59604708,10.63993134,11.88773824,13.46196991,16.33917455,19.44576582,24.48192375
0.37,8.509289446,8.818451595,9.419148973,9.803782312,10.20915174,11.09369481,11.81776557,11.08664304,12.40186972,14.08368074,16.80560093,20.05160483,25.22884081
0.38,8.584735505,8.905821432,9.486469599,9.931438702,10.3812058,11.25980336,12.02486279,11.5381561,12.91670034,14.72965629,17.28425872,20.6417366,25.98520897
0.39,8.624881549,8.969551794,9.547171899,10.04352749,10.53984025,11.42943639,12.23290431,12.0093708,13.45219757,15.37621545,17.770111,21.25282171,26.74524649
0.4,8.630534449,9.014186259,9.618247517,10.15435137,10.68395361,11.60945616,12.44616789,12.49381666,14.00346757,15.99872906,18.2465462,21.87747193,27.50068768
0.41,8.596484783,9.032699877,9.697367908,10.25743412,10.80487781,11.78598677,12.65412904,12.98063041,14.55450572,16.58829443,18.71195149,22.50951003,28.24759254
0.42,8.523790574,9.02348737,9.777118606,10.35234605,10.89730455,11.94739615,12.84885623,13.4600775,15.0947385,17.15487509,19.16883468,23.14671892,28.98106267
0.43,8.422501607,8.989965111,9.844212097,10.43155785,10.9611928,12.08722453,13.02525144,13.92544914,15.63114339,17.73099103,19.62597437,23.78847015,29.69855218
0.44,8.348607662,8.976081086,9.907472825,10.51338475,11.03594196,12.22094713,13.19682418,14.38916769,16.16286809,18.343859,20.09652192,24.42780081,30.41614301
0.45,8.511941641,9.158661553,10.02705032,10.68543675,11.28549617,12.41191292,13.41691258,14.91723128,16.7608502,19.01753451,20.61439467,25.0492526,31.22800924
0.46,8.655121117,9.309817008,10.1284943,10.8370165,11.50747508,12.59125528,13.61937884,15.42593595,17.31877507,19.6938223,21.14290761,25.66111559,32.03351269
0.47,8.807240878,9.459127093,10.26514478,11.00862916,11.72443636,12.79356734,13.83326172,15.92875512,17.87837816,20.35739947,21.67003539,26.27686599,32.82947586
0.48,8.993101413,9.637128337,10.46744396,11.23089573,11.96141989,13.03775397,14.08008054,16.45096077,18.44666167,20.99800283,22.20000252,26.89480878,33.61471693
0.49,9.210205068,9.844233782,10.71587435,11.4880469,12.21183132,13.31488571,14.36201792,16.97888254,19.01869121,21.6171394,22.72397867,27.5215127,34.3887028
0.5,9.440541692,10.06486668,10.96795915,11.7460487,12.46240042,13.59007172,14.657912,17.49875133,19.58117239,22.22566686,23.24982585,28.15879855,35.16588511
0.51,9.684707001,10.30198846,11.21836662,11.9990808,12.71373821,13.86016168,14.97028804,18.01105067,20.12778998,22.83832586,23.79251541,28.80681486,35.94840746
0.52,9.951712969,10.56342436,11.47568983,12.25672255,12.97553176,14.1361416,15.28759262,18.51845413,20.67017944,23.44917273,24.34979306,29.45906037,36.72908567
0.53,10.24525788,10.84813729,11.74676805,12.52814574,13.25360693,14.42534119,15.61385732,19.01974901,21.2113226,24.05671297,24.910975,30.10732534,37.49520329
0.54,10.5674946,11.15689613,12.037325,12.81765686,13.55386863,14.75218985,15.95509567,19.51008426,21.75105242,24.64323622,25.47519654,30.7572597,38.2551234
0.55,10.90357514,11.47928114,12.34521059,13.12387344,13.87058202,15.09275993,16.31168581,19.99651273,22.28630795,25.22000937,26.04679826,31.4077986,39.01690517
0.56,11.2183976,11.79241844,12.6724725,13.45999836,14.20460101,15.46041582,16.69815028,20.48105285,22.81801982,25.82951734,26.63827111,32.06532987,39.80227345
0.57,11.55653325,12.13152649,13.01841555,13.8085192,14.55442185,15.84158644,17.09613507,20.97124868,23.34498914,26.42465011,27.23580272,32.72816774,40.58361011
0.58,11.91688723,12.49526861,13.38490764,14.17618287,14.93027171,16.23472044,17.50295665,21.46060132,23.87452558,26.9986764,27.84152245,33.40034316,41.36465425
0.59,12.29090602,12.87363834,13.7631369,14.55084951,15.3255078,16.63573813,17.9159194,21.95503618,24.40834437,27.54941347,28.45593425,34.08161999,42.14651722
0.6,12.66277958,13.24940458,14.13671273,14.92312757,15.72660334,17.04052763,18.33030515,22.44578193,24.93763957,28.08245884,29.07184406,34.76312427,42.92442676
0.61,13.0396978,13.63757387,14.53850319,15.30395282,16.14385458,17.4612025,18.77785014,22.93666361,25.46303658,28.63136846,29.68032485,35.43558808,43.70382466
0.62,13.41172583,14.04148257,14.93005288,15.69811137,16.5726324,17.89273172,19.24046601,23.41827099,25.97784429,29.18993067,30.29532007,36.09300011,44.48524192
0.63,13.79367438,14.43222715,15.32364382,16.11266463,17.00148553,18.33528441,19.71660542,23.88016497,26.47196004,29.74910773,30.91168439,36.73684738,45.26402086
0.64,14.16126105,14.81443466,15.71993602,16.55002803,17.42873027,18.79001348,20.21089824,24.32569667,26.94692265,30.30446105,31.53519184,37.37452478,46.03851689
0.65,14.5229787,15.19098824,16.1203987,17.00189759,17.85083691,19.29227298,20.72960806,24.76565985,27.40455338,30.85293057,32.17268876,38.0182243,46.80781145
0.66,14.91067465,15.59410717,16.5497491,17.4669293,18.29723901,19.81022963,21.26434183,25.21927956,27.87722552,31.3860349,32.82498275,38.69020381,47.60647686
0.67,15.40470391,16.1076514,17.07503644,17.96517207,18.85175711,20.30635719,21.77539713,25.72282297,28.42780462,31.88219638,33.47837308,39.42540334,48.44579415
0.68,15.92278367,16.63469814,17.60299499,18.47443329,19.40562003,20.84073526,22.32341443,26.22448485,28.95783255,32.36991706,34.14235037,40.15725522,49.27054109
0.69,16.47052161,17.17601998,18.0590321,18.95317161,19.9981091,21.41112647,22.90966183,26.71925073,29.46843243,32.85923412,34.81126035,40.8821248,50.08614904
0.7,17.04089329,17.73750698,18.55877746,19.4751255,20.58946921,21.97712526,23.5266592,27.20455889,29.96414337,33.35905728,35.48302086,41.59521594,50.89951889
0.71,17.61967608,18.30722277,19.07075459,20.0466086,21.1909583,22.56524163,24.16251193,27.68413803,30.45179367,33.8725987,36.16116561,42.29865155,51.71690145
0.72,18.22032815,18.89743558,19.60542083,20.64168748,21.81283296,23.18051969,24.8238698,28.16572154,30.93614043,34.38853254,36.84364537,43.00059113,52.55644265
0.73,18.82143988,19.49157201,20.15331543,21.25314986,22.4433225,23.80668085,25.49612999,28.65189141,31.42142549,34.90143406,37.53188844,43.69437145,53.38855245
0.74,19.41341384,20.08230814,20.76096267,21.86889728,23.07915156,24.43600529,26.16942931,29.14620585,31.91447597,35.41275397,38.22438282,44.38191723,54.22698419
0.75,19.92084976,20.71092637,21.35392466,22.48595841,23.7234197,25.06868778,26.84268593,29.64722779,32.41588427,35.92350786,38.91479371,45.08300139,55.06728903
0.76,20.46433254,21.26241569,21.95511588,23.10829845,24.37950647,25.7059739,27.51775486,30.15524908,32.92491752,36.43578953,39.60143999,45.80155718,55.90190254
0.77,21.06094375,21.84006027,22.52949263,23.73247,25.03959357,26.35380295,28.20430977,30.66642764,33.43295305,36.95033693,40.29557734,46.51987129,56.73562132
0.78,21.58339643,22.37908222,23.08081819,24.32398958,25.68551891,27.00864357,28.9074998,31.16254896,33.9165843,37.45872637,41.00306113,47.22359242,57.59347012
0.79,22.09734657,22.91431257,23.62799321,24.9113478,26.28963669,27.65415603,29.60096738,31.66623544,34.41065078,37.97263443,41.70565408,47.93545112,58.44115998
0.8,22.60715473,23.44726091,24.18121526,25.49989422,26.90051444,28.29589289,30.28621112,32.18072024,34.91714904,38.49940473,42.40596602,48.65872457,59.27455577
0.81,23.11333344,23.97900996,24.74765227,26.09490929,27.51852268,28.9335231,30.97022982,32.70819557,35.43802544,39.04213862,43.10981227,49.39456167,60.10527172
0.82,23.62531495,24.52005304,25.3363145,26.70229059,28.14666307,29.59263395,31.66270717,33.24187929,35.96744351,39.60566893,43.83202819,50.1362542,60.93273185
0.83,24.21732647,25.13635202,25.99037371,27.37066565,28.83556654,30.30396215,32.38510703,33.81782773,36.5329639,40.20046803,44.57701036,50.90105622,61.78600501
0.84,24.85079178,25.78770736,26.68508116,28.07474408,29.55069043,31.0428922,33.13238915,34.39407289,37.10159868,40.79096214,45.32075818,51.66172781,62.65020275
0.85,25.51353726,26.46427551,27.4028943,28.79812757,30.27257303,31.79347854,33.88417435,34.94033365,37.64680371,41.3543483,46.04715177,52.39742234,63.51206396
0.86,26.19366603,27.15267292,28.1274495,29.52483947,30.98712725,32.54795162,34.64700003,35.46038705,38.17473708,41.89230511,46.75840932,53.11615786,64.36110164
0.87,26.87220684,27.83318987,28.83374152,30.23089828,31.68099804,33.31613396,35.4032809,35.9525896,38.6867174,42.41666254,47.46521536,53.82827169,65.18697288
0.88,27.54514979,28.51141146,29.52069803,30.92104741,32.37765472,34.0650046,36.15640249,36.48370285,39.22102858,42.98303802,48.19916531,54.57468123,66.04266339
0.89,28.22213945,29.19992645,30.20536807,31.6096858,33.1136222,34.74265114,36.87268841,37.04020595,39.80331658,43.59121406,48.97881907,55.38075103,66.92643474
0.9,28.84628523,29.8308553,30.84219486,32.26213445,33.79941343,35.40380899,37.5657968,37.57471475,40.35901209,44.17541719,49.71958062,56.17084464,67.7642589
0.91,29.45033252,30.43767128,31.45322097,32.89046293,34.44180614,36.04960483,38.23314603,38.08193664,40.88206661,44.73528152,50.4355307,56.93296916,68.57826322
0.92,30.06890718,31.04645103,32.07400092,33.51888958,35.06862629,36.6916574,38.89048893,38.56694649,41.37500573,45.27496371,51.12772578,57.66718555,69.39268762
0.93,30.69011425,31.68011198,32.72096133,34.16120956,35.70314167,37.34445093,39.54899404,39.04640786,41.86964933,45.80536324,51.81105355,58.38755844,70.2033439
0.94,31.35594873,32.35710834,33.4057173,34.85159591,36.38441665,38.04085928,40.25364692,39.57408362,42.40941138,46.38889874,52.53351128,59.14252037,71.06261184
0.95,32.06992558,33.04950354,34.13214906,35.58062189,37.09625647,38.77382177,40.98461702,40.1358078,42.9839193,46.99883875,53.28417603,59.91637664,71.94106759
0.96,32.8123254,33.78064155,34.87926569,36.32865341,37.8177314,39.51999569,41.72002165,40.72017779,43.58033948,47.60384845,54.04533851,60.69796996,72.82169209
0.97,33.56095931,34.51934834,35.62815948,37.06591666,38.5318855,40.25489773,42.45046517,41.314502,44.18449095,48.21475891,54.79557194,61.48411805,73.69502231
0.98,34.30168809,35.24402164,36.35600177,37.78145196,39.2296324,40.96502125,43.15400541,41.90682173,44.7896249,48.82026765,55.52526581,62.26606189,74.5544174
0.99,35.00129128,35.93377289,37.05004762,38.47248759,39.90636788,41.65111664,43.84035069,42.49659639,45.39221553,49.42868255,56.24071547,63.05344278,75.40251597
1,35.6567359,36.58922941,37.71408898,39.1482298,40.56451729,42.33274631,44.52401452,43.09065028,45.999453,50.05988217,56.95941923,63.82293767,76.25057148
1.01,36.31476219,37.24664395,38.37805739,39.8196058,41.21525588,43.00551095,45.1965936,43.69903465,46.62355823,50.69668876,57.66708149,64.60137506,77.09353014
1.02,36.98324828,37.9131857,39.04608732,40.49211822,41.86673072,43.67193085,45.86464816,44.31508156,47.26063198,51.33302072,58.36601653,65.38776664,77.93683141
1.03,37.66018226,38.58758281,39.71562426,41.1610946,42.52955177,44.3387872,46.53218378,44.93300935,47.89930981,51.96734773,59.06246029,66.17869775,78.78364805
1.04,38.33468109,39.25996161,40.37766873,41.81906998,43.18855997,44.9994419,47.19568002,45.5468589,48.53766409,52.60440654,59.76427385,66.96680606,79.63305943
1.05,38.91740906,39.85092718,40.97463348,42.42361296,43.79581332,45.62049469,47.82395379,46.15912944,49.17689698,53.2592927,60.45041704,67.75217395,80.49083073
1.06,39.44872772,40.39519725,41.52770921,42.98983472,44.36494201,46.20782594,48.42398982,46.78143049,49.82626947,53.93056496,61.1342592,68.52247153,81.34593221
1.07,39.94077531,40.90052203,42.04231035,43.52058399,44.9020073,46.7607288,48.99212869,47.41216666,50.48621091,54.62524915,61.80299584,69.2727217,82.19340068
1.08,40.39046164,41.36186531,42.51428539,44.01056096,45.400833,47.28047645,49.52782897,48.05248506,51.15641913,55.34746086,62.4704389,70.00691046,83.03066486
1.09,40.79260997,41.77504667,42.93919679,44.45897855,45.85629614,47.78457869,50.04890418,48.70404149,51.83625358,56.09761978,63.15306404,70.73587546,83.85638523
1.1,41.35084919,42.33191803,43.49708596,45.02061709,46.41169784,48.36721,50.62989612,49.40129838,52.55144259,56.85008084,63.85806029,71.50609268,84.71955927
1.11,42.21293142,43.17291465,44.31386295,45.79794082,47.16630317,49.0654012,51.30483836,50.12950696,53.28841426,57.57119061,64.55838147,72.32386511,85.6373473
1.12,42.98481346,43.92464139,45.04120508,46.49662649,47.84643047,49.71998807,51.94239363,50.8222178,53.99905195,58.28752284,65.24232019,73.11517917,86.51743402
1.13,43.67808839,44.6010734,45.69594151,47.12349188,48.46089663,50.32587776,52.53310673,51.50619833,54.70233348,59.01563262,65.91748551,73.88448998,87.37619794
1.14,44.31061208,45.21882891,46.29698369,47.6975893,49.02777446,50.89038391,53.09219739,52.19443132,55.41704553,59.76743719,66.58538633,74.63512786,88.22834047
1.15,44.90272417,45.79486681,46.86190915,48.24158762,49.56991639,51.42875132,53.63261037,52.90434918,56.15307878,60.53965543,67.25771905,75.37936407,89.08421683
1.16,45.44904748,46.32820242,47.39558431,48.76882932,50.09039488,51.94808095,54.16191195,53.63973805,56.92053629,61.34241115,67.94895726,76.14255653,89.96009091
1.17,45.98638093,46.85538597,47.92420325,49.30182412,50.61787143,52.47373175,54.69904757,54.39266191,57.70787735,62.16266884,68.66200706,76.91866444,90.84864364
1.18,46.51568434,47.38065759,48.4507436,49.83837955,51.15329987,53.00813564,55.24308185,55.15840535,58.51687354,62.99160826,69.38385195,77.70324548,91.7502385
1.19,47.03112465,47.89889849,48.97350104,50.36773162,51.68968093,53.54015844,55.78732233,55.92562575,59.32035629,63.82862667,70.09982666,78.50929003,92.6610172
1.2,47.52865795,48.40528436,49.48417468,50.8851532,52.22061034,54.0639443,56.32394855,56.691184,60.11205137,64.67018747,70.80412699,79.29762319,93.57332152
1.21,47.99677306,48.88264832,49.97566704,51.39275665,52.73731465,54.58318503,56.85675318,57.45887991,60.91098927,65.51313421,71.50385093,80.08192006,94.47343572
