"Time [ms]","Current(PhaseA) [A]","Current(PhaseB) [A]","Current(PhaseC) [A]"
0,0,0,0
0.01,0.275447948168559,-0.142054876749035,-0.133393071419524
0.02,0.54682236938209,-0.279517960867084,-0.267304408515006
0.03,0.815385609907236,-0.413610119042799,-0.401775490864437
0.04,1.08125486324198,-0.545184857793767,-0.536070005448212
0.05,1.34480905768689,-0.675091280635177,-0.669717777051718
0.06,1.60676741741085,-0.803410406110654,-0.803357011300197
0.07,1.86709121023381,-0.930172338544287,-0.936918871689525
0.08,2.12550768221817,-1.05378634747692,-1.07172133474125
0.09,2.38134098269411,-1.17311885054155,-1.20822213215256
0.1,2.63411950974754,-1.28804619894169,-1.34607331080584
0.11,2.88452207073106,-1.40154837992745,-1.48297369080361
0.12,3.13177836518291,-1.5126666791955,-1.61911168598742
0.13,3.37605759464278,-1.62115190196719,-1.75490569267559
0.14,3.61738022229664,-1.72615457509503,-1.89122564720161
0.15,3.85559588658041,-1.82687820288817,-2.02871768369224
0.16,4.0912355953147,-1.92583190525175,-2.16540369006295
0.17,4.32452651898621,-2.02159293166991,-2.3029335873163
0.18,4.55482076549342,-2.11383582645745,-2.44098493903597
0.19,4.78117558585466,-2.20211703676781,-2.57905854908685
0.2,5.00462794884942,-2.28707896767584,-2.71754898117357
0.21,5.23153892824696,-2.37272908590629,-2.85880984234067
0.22,5.45164290620821,-2.45366654977741,-2.9979763564308
0.23,5.66576903730018,-2.53045481270174,-3.13531422459843
0.24,5.87660256366586,-2.60458854885427,-3.27201401481159
0.25,6.0850195841004,-2.67655750070505,-3.40846208339535
0.26,6.29029998092524,-2.74717848355906,-3.54312149736618
0.27,6.49493175911227,-2.8166724075467,-3.67825935156557
0.28,6.69924734917492,-2.88450357992443,-3.81474376925048
0.29,6.90300348702551,-2.95013942742014,-3.95286405960537
0.3,7.10540492717461,-3.01358630611663,-4.09181862105798
0.31,7.30602346019148,-3.07680469017585,-4.22921877001563
0.32,7.50565873054717,-3.13965231233494,-4.36600641821223
0.33,7.70492362459775,-3.20183826719664,-4.50308535740111
0.34,7.9038128609586,-3.26214817359608,-4.64166468736251
0.35,8.1017765310148,-3.31892314187629,-4.78285338913851
0.36,8.29959832530701,-3.37291686441112,-4.92668146089589
0.37,8.49588312023369,-3.42464934809662,-5.07123377213707
0.38,8.6892018109809,-3.47379907674598,-5.21540273423492
0.39,8.87790902927824,-3.51989670506435,-5.35801232421388
0.4,9.06735429382078,-3.56524579208643,-5.50210850173435
0.41,9.26546920805108,-3.61332221822941,-5.65214698982166
0.42,9.45945906148268,-3.65943816893451,-5.80002089254817
0.43,9.6496853954837,-3.70412544489463,-5.94555995058907
0.440000000000001,9.83703734331808,-3.74773272696426,-6.08930461635382
0.450000000000001,10.0225262124424,-3.78943563843709,-6.23309057400527
0.460000000000001,10.2071554728059,-3.82905471554874,-6.37810075725711
0.470000000000001,10.391974481504,-3.8676835897722,-6.52429089173184
0.480000000000001,10.5768735187442,-3.9044615453639,-6.67241197338026
0.490000000000001,10.7609330454685,-3.93862290969806,-6.82231013577048
0.500000000000001,10.9430769249443,-3.97066482095501,-6.97241210398932
0.510000000000001,11.1235246745992,-4.00242308985349,-7.12110158474566
0.520000000000001,11.3034911333458,-4.03368466838859,-7.26980646495723
0.530000000000001,11.4838559893773,-4.06432548024092,-7.41953050913633
0.540000000000001,11.6647814024794,-4.0933842713885,-7.57139713109087
0.550000000000001,11.8442290175703,-4.11974717024795,-7.72448184732234
0.560000000000001,12.0213447624228,-4.14350914044708,-7.87783562197571
0.570000000000001,12.1963430673604,-4.16419373276118,-8.03214933459927
0.580000000000001,12.3678318749399,-4.18158770598955,-8.18624416895031
0.590000000000001,12.534571808224,-4.19579603617884,-8.33877577204514
0.600000000000001,12.7073646520055,-4.21221052438346,-8.495154127622
0.610000000000001,12.8877070824632,-4.23160833767199,-8.65609874479125
0.620000000000001,13.0636516282913,-4.24883363550665,-8.81481799278465
0.630000000000001,13.2364735546464,-4.26460540265721,-8.97186815198914
0.640000000000001,13.4076772409669,-4.27956358228716,-9.1281136586797
0.650000000000001,13.5770350077061,-4.29315295282895,-9.28388205487719
0.660000000000001,13.7451999027028,-4.30595856921979,-9.43924133348305
0.670000000000001,13.913671739003,-4.31808177567715,-9.59558996332588
0.680000000000001,14.0816306632221,-4.32835491846245,-9.75327574475964
0.690000000000001,14.2478671343122,-4.33603110373721,-9.91183603057501
0.700000000000001,14.4120699602796,-4.34226672651905,-10.0698032337606
0.710000000000001,14.5747482879852,-4.34880802416854,-10.2259402638166
0.720000000000001,14.736541843239,-4.35523703680134,-10.3813048064377
0.730000000000001,14.8983038106493,-4.36082698162086,-10.5374768290284
0.740000000000001,15.0599892505798,-4.36393372460217,-10.6960555259777
0.750000000000001,15.220194157155,-4.36372370117529,-10.8564704559797
0.760000000000001,15.378628932152,-4.36189318872959,-11.0167357434224
0.770000000000001,15.5337207223742,-4.3586808403856,-11.1750398819886
0.780000000000001,15.6836361779997,-4.35395547935102,-11.3296806986486
0.790000000000001,15.8270751964393,-4.34722530176272,-11.4798498946765
0.800000000000001,15.9830785126087,-4.34062481559747,-11.6424536970112
0.810000000000001,16.1440024232663,-4.33403671995743,-11.8099657033088
0.820000000000002,16.2994625533284,-4.32683994497761,-11.9726226083508
0.830000000000002,16.450883507338,-4.31955212658104,-12.131331380757
0.840000000000002,16.5999761604015,-4.31206001292125,-12.2879161474802
0.850000000000002,16.7465228146026,-4.30226965941659,-12.444253155186
0.860000000000002,16.8925105116388,-4.29114355622333,-12.6013669554155
0.870000000000002,17.0391517142758,-4.27901231293221,-12.7601394013436
0.880000000000002,17.1851844987991,-4.26523647154647,-12.9199480272526
0.890000000000002,17.3289487519395,-4.24936458919262,-13.0795841627468
0.900000000000002,17.4700003019481,-4.23223987590072,-13.2377604260474
0.910000000000002,17.608943819728,-4.21446089003643,-13.3944829296916
0.920000000000002,17.7468310794552,-4.19614974590676,-13.5506813335484
0.930000000000002,17.8845705743683,-4.17707657130448,-13.7074940030638
0.940000000000002,18.02194651441,-4.15625236456988,-13.8656941498401
0.950000000000002,18.1576351712619,-4.13458926844314,-14.0230459028188
0.960000000000002,18.2919532833442,-4.11164759584312,-14.1803056875011
0.970000000000002,18.4228536748065,-4.08589417587421,-14.3369594989323
0.980000000000002,18.5480248996843,-4.0565560830153,-14.491468816669
0.990000000000002,18.6658776541386,-4.02332996074423,-14.6425476933943
1,18.8030662321014,-3.99641758606733,-14.8066486460341
1.01,18.9405104257461,-3.96963996554779,-14.9708704601983
1.02,19.0718447888746,-3.94065503165546,-15.1311897572191
1.03,19.1985924782055,-3.9097988724008,-15.2887936058047
1.04,19.3228136712879,-3.87732912478692,-15.445484546501
1.05,19.4446013279398,-3.84395067312958,-15.6006506548102
1.06,19.5674967974284,-3.81081893910295,-15.7566778583255
1.07,19.6919685152978,-3.77695665502432,-15.9150118602735
1.08,19.8164171346662,-3.74129119291203,-16.0751259417542
1.09,19.9390071074287,-3.70320491891299,-16.2358021885157
1.1,20.0580636520871,-3.66421072936506,-16.3938529227221
1.11,20.175603959769,-3.62460002914247,-16.5510039306266
1.12,20.2935300811817,-3.58453342023971,-16.708996660942
1.13,20.4130555337584,-3.54383091814578,-16.8692246156126
1.14,20.5335889059897,-3.50189495078029,-17.0316939552094
1.15,20.6520434625231,-3.45971761144042,-17.1923258510827
1.16,20.767821542418,-3.41470766409456,-17.3531138783234
1.17,20.8788897404306,-3.36570749153047,-17.5131822489001
1.18,20.9839745545845,-3.31258972485114,-17.6713848297333
1.19,21.0827434532895,-3.25588675703245,-17.826856696257
1.2,21.2126962629451,-3.21328286630062,-17.9994133966445
1.21,21.337180970264,-3.16799153053734,-18.1691894397267
1.22,21.4553266847949,-3.11918583273478,-18.3361408520602
1.23,21.5694895171839,-3.06760523339841,-18.5018842837855
1.24,21.682707183857,-3.0144772980012,-18.6682298858558
1.25,21.7960309725991,-2.96214198410049,-18.8338889884987
1.26,21.9119627382291,-2.91043293882721,-19.0015297994019
1.27,22.0295730951872,-2.85779560979509,-19.1717774853921
1.28,22.1468333708253,-2.80298348152891,-19.3438498892964
1.29,22.2618563216158,-2.74545383236268,-19.5164024892531
1.3,22.374579284622,-2.68790578311442,-19.6866735015075
1.31,22.4870527426151,-2.63092549782657,-19.8561272447885
1.32,22.6004316909275,-2.5742252124887,-20.0262064784388
1.33,22.7148990702349,-2.51631190921212,-20.1985871610228
1.34,22.8286852902786,-2.45494729721596,-20.3737379930626
1.35,22.9392383412819,-2.38962631264264,-20.5496120286393
1.36,23.0484683920239,-2.32187176224288,-20.726596629781
1.37,23.1548397656788,-2.25294912158878,-20.90189064409
1.38,23.2568163543838,-2.1838778638223,-21.0729384905615
1.39,23.3559110314338,-2.11449029034573,-21.2414207410881
1.4,23.4699558585415,-2.03910630361399,-21.4308495549275
1.41,23.5790988794817,-1.96334599760303,-21.6157528818787
1.42,23.685330791618,-1.88891723507707,-21.7964135565409
1.43,23.7906253942468,-1.81650798625666,-21.9741174079901
1.44,23.8957269524178,-1.74512232146719,-22.1506046309506
1.45,23.9979262669852,-1.67221100846953,-22.3257152585156
1.46,24.101411922744,-1.59798639850525,-22.5034255242387
1.47,24.2059938410718,-1.52226896977653,-22.6837248712953
1.48,24.310013418562,-1.44496941416591,-22.8650440043961
1.49,24.4115730296729,-1.36643631797813,-23.0451367116948
1.5,24.5101266803825,-1.28861430454522,-23.2215123758373
1.51,24.6080380131936,-1.21130030147652,-23.3967377117171
1.52,24.7068069395844,-1.13377397180335,-23.5730329677811
1.53,24.8067297471291,-1.05437565281591,-23.7523540943132
1.54,24.9062199638626,-0.972344862639992,-23.9338751012226
1.55,25.0043551279239,-0.890087918788262,-24.1142672091357
1.56,25.1002906668062,-0.807737115714198,-24.292553551092
1.57,25.191607409202,-0.725543251998228,-24.4660641572038
1.58,25.2763248562674,-0.643249343894116,-24.6330755123733
1.59,25.363100169689,-0.558727611455397,-24.8043725582336
1.6,25.4689070960504,-0.46975647683429,-24.9991506192161
1.61,25.5677094079595,-0.381705840923189,-25.1860035670363
1.62,25.6610904821133,-0.295010568606818,-25.3660799135065
1.63,25.7512585474801,-0.209147733115637,-25.5421108143644
1.64,25.8399193430017,-0.122801261687496,-25.7171180813142
1.65,25.9280306244305,-0.0355063810864557,-25.8925242433441
1.66,26.0182619582718,0.052729097237815,-26.0709910555096
1.67,26.109338671038,0.141913739871587,-26.2512524109096
1.68,26.1989161672828,0.232036655777609,-26.4309528230604
1.69,26.2849852577461,0.323100436994967,-26.6080856947411
1.7,26.3677826341677,0.414414428622477,-26.7821970627901
1.71,26.4492512170669,0.505530983713212,-26.9547822007801
1.72,26.5312813908353,0.596881874965586,-27.1281632658009
1.73,26.614587587253,0.68978701496972,-27.3043746022227
1.74,26.6978368031933,0.78481135453297,-27.4826481577263
1.75,26.7797507259417,0.880319370032923,-27.6600700959746
1.76,26.8577779453603,0.976710082685712,-27.834488028046
1.77,26.9288337578967,1.07437543237023,-28.0032091902669
1.78,26.9910306241762,1.1737095266307,-28.1647401508069
1.79,27.0639219652763,1.27338006270411,-28.3373020279804
1.8,27.1545967247796,1.37193076394564,-28.5265274887252
1.81,27.2363979661616,1.4710591788106,-28.7074571449722
1.82,27.3109619711549,1.57074856378845,-28.8817105349434
1.83,27.381232693304,1.6713948255054,-29.0526275188094
1.84,27.4500768065758,1.77374292404751,-29.2238197306233
1.85,27.5199666726563,1.87670551822894,-29.3966721908853
1.86,27.5922883761675,1.98020082521647,-29.572489201384
1.87,27.665262274916,2.08484573361558,-29.7501080085315
1.88,27.7363595338419,2.19096924605307,-29.927328779895
1.89,27.8030849426254,2.29779293557737,-30.1008778782028
1.9,27.8668933279562,2.40436701315916,-30.2712603411153
1.91,27.9305531085596,2.51120956421824,-30.4417626727779
1.92,27.9954500589234,2.61879796832789,-30.6142480272513
1.93,28.0611114102288,2.72792943248256,-30.7890408427114
1.94,28.12392927926,2.83833100335003,-30.96226028261
1.95,28.1843418620724,2.95034024760474,-31.1346821096771
1.96,28.2421139522805,3.06475712339343,-31.306871075674
1.97,28.2953786376147,3.18135924504406,-31.4767378826588
1.98,28.3424265123208,3.29969158018632,-31.6421180925071
1.99,28.4017762185676,3.41634937198983,-31.8181255905574
2,28.4673243992239,3.53210710155069,-31.9994315007746
2.01,28.526952176517,3.6490831662499,-32.1760353427669
2.02,28.5833450029232,3.76725530739784,-32.350600310321
2.03,28.6387048040534,3.88672681477866,-32.5254316188321
2.04,28.6919818845419,4.00740634457079,-32.6993882291127
2.05,28.7449555770343,4.12870306143722,-32.8736586384715
2.06,28.7997227671239,4.25098312414751,-33.0507058912714
2.07,28.8547602370703,4.37467565461141,-33.2294358916817
2.08,28.90792085775,4.50002210764722,-33.4079429653972
2.09,28.9577105430284,4.62674228135543,-33.5844528243838
2.1,29.0057042460631,4.75332560341859,-33.7590298494817
2.11,29.0536813440289,4.87985536551361,-33.9335367095425
2.12,29.1027707701126,5.00738818927533,-34.1101589593879
2.13,29.1521351895693,5.13751381689535,-34.2896490064646
2.14,29.1993722466208,5.26974510212816,-34.469117348749
2.15,29.2454461717394,5.40359316145592,-34.6490393331953
2.16,29.2884900369393,5.53896133563967,-34.8274513725789
2.17,29.3252929393159,5.67534332631954,-35.0006362656354
2.18,29.3538282539469,5.81217052124387,-35.1659987751908
2.19,29.4012294731685,5.95211297750145,-35.35334245067
2.2,29.4505782955593,6.09305259138548,-35.5436308869448
2.21,29.4939995818165,6.23370679516751,-35.727706376984
2.22000000000001,29.5336342600242,6.37424987425623,-35.9078841342804
2.23000000000001,29.5715093387621,6.51527677670086,-36.086786115463
2.24000000000001,29.6056282555291,6.65736291989651,-36.2629911754256
2.25000000000001,29.6397404393572,6.80001087988655,-36.4397513192437
2.26000000000001,29.6755050142515,6.94392877249935,-36.6194337867508
2.27000000000001,29.7112600249279,7.08925801183784,-36.8005180367657
2.28000000000001,29.7445176946726,7.23572394243258,-36.9802416371051
2.29000000000001,29.7736398725034,7.38077002892271,-37.1544099014262
2.30000000000001,29.8008855215136,7.52485437410243,-37.325739895616
2.31000000000001,29.8283521256277,7.66915622851578,-37.4975083541435
2.32000000000001,29.8571552412627,7.8151556334548,-37.6723108747175
2.33000000000001,29.886589302546,7.96371215656976,-37.8503014591158
2.34000000000001,29.9139040138245,8.1127944024087,-38.0266984162332
2.35000000000001,29.9400005463054,8.26159939761629,-38.2015999439217
2.36000000000001,29.9620327901959,8.40906312541351,-38.3710959156094
2.37000000000001,29.9767684394255,8.55463784811753,-38.531406287543
2.38000000000001,29.9819977745409,8.69825664440969,-38.6802544189506
2.39000000000001,30.0168889281479,8.85252747231663,-38.8694164004646
2.40000000000001,30.0475542129337,9.00544735577643,-39.0530015687101
2.41000000000001,30.0710966299131,9.15571242338738,-39.2268090533004
2.42000000000001,30.0897152726323,9.30417064890187,-39.3938859215342
2.43000000000001,30.1058515679912,9.45244425978941,-39.5582958277806
2.44000000000001,30.118716097527,9.60135455028739,-39.7200706478144
2.45000000000001,30.1330206282944,9.7514488773078,-39.8844695056022
2.46000000000001,30.1485040389597,9.90249571283694,-40.0509997517966
2.47000000000001,30.163222854541,10.0537417002101,-40.2169645547511
2.48000000000001,30.175098268358,10.2045350644156,-40.3796333327736
2.49000000000001,30.1826278182209,10.3545153782693,-40.5371431964902
2.50000000000001,30.1888090873149,10.5027528255279,-40.6915619128428
2.51000000000001,30.1958852512246,10.6501969727092,-40.8460822239338
2.52000000000001,30.2049109392251,10.7987463053015,-41.0036572445267
2.53000000000001,30.2143578002002,10.9499789495738,-41.164336749774
2.54000000000001,30.2197492550808,11.1028668535448,-41.3226161086256
2.55000000000001,30.2222601684191,11.2546383732445,-41.4768985416636
2.56000000000001,30.2198377164849,11.4036160531142,-41.6234537695991
2.57000000000001,30.2109627587025,11.549312227405,-41.7602749861075
2.58000000000001,30.1971583790902,11.6934062898337,-41.890564668924
2.59000000000001,30.2153529460374,11.8551475314222,-42.0705004774597
2.60000000000001,30.2248409828036,12.0126121220171,-42.2374531048207
2.61000000000001,30.2278410945598,12.1660818711464,-42.3939229657062
2.62000000000001,30.2275854774842,12.3166577881283,-42.5442432656125
2.63000000000001,30.2273064660375,12.4664605530909,-42.6937670191284
2.64000000000001,30.2266054541275,12.6176523766201,-42.8442578307476
2.65000000000001,30.2296494932712,12.7700842605564,-42.9997337538276
2.66000000000001,30.2357081120976,12.9236689857378,-43.1593770978354
2.67000000000001,30.2421182369056,13.0776020644503,-43.3197203013559
2.68000000000001,30.2463049401937,13.2306037196579,-43.4769086598516
2.69000000000001,30.2472952431782,13.3805960772331,-43.6278913204113
2.70000000000001,30.2487577155178,13.5295976511587,-43.7783553666765
2.71000000000001,30.2527597438278,13.6791062291657,-43.9318659729935
2.72000000000001,30.2597691578688,13.8307140251266,-44.0904831829954
2.73000000000001,30.2678274888561,13.9844363186447,-44.2522638075008
2.74000000000001,30.2746158346059,14.1375772964852,-44.4121931310912
2.75000000000001,30.2793963444353,14.2897564196603,-44.5691527640956
2.76000000000001,30.2800577697585,14.4394448707463,-44.7195026405048
2.77000000000001,30.2748911794877,14.5861309051339,-44.8610220846216
2.78000000000001,30.2722544734546,14.7344935275311,-45.0067480009858
2.79000000000001,30.2940562752892,14.8953082391484,-45.1893645144376
2.80000000000001,30.3082139446132,15.0519547855464,-45.3601687301597
2.81000000000001,30.317140667311,15.2053245553077,-45.5224652226188
2.82000000000001,30.3239758901651,15.3571983762106,-45.6811742663757
2.83000000000001,30.3315690159916,15.509617208353,-45.8411862243446
2.84000000000001,30.3408878691842,15.6632189031027,-46.0041067722869
2.85000000000001,30.3534485827643,15.8192737995685,-46.1727223823329
2.86000000000001,30.3682936831982,15.9771617697623,-46.3454554529605
2.87000000000001,30.3834565991298,16.1357736001505,-46.5192301992803
2.88000000000001,30.3967707240387,16.2942260076501,-46.6909967316888
2.89000000000001,30.4082438996971,16.4517118713689,-46.859955771066
2.90000000000001,30.4205230521165,16.6086901820666,-47.0292132341831
2.91000000000001,30.434883287241,16.7666747147836,-47.2015580020246
2.92000000000001,30.4512885165901,16.9274563384101,-47.3787448550002
2.93000000000001,30.4674947837209,17.0909069228286,-47.5584017065495
2.94000000000001,30.4822186675368,17.2549940257006,-47.7372126932374
2.95000000000001,30.4945628218677,17.4185298860257,-47.9130927078934
2.96000000000001,30.5018948257161,17.5797972554102,-48.0816920811264
2.97000000000001,30.5023072812649,17.7380156901987,-48.2403229714636
2.98000000000001,30.5091223521527,17.9025321713851,-48.4116545235378
2.99000000000001,30.5310972115563,18.0789344105023,-48.6100316220586
3.00000000000001,30.5461566059662,18.2513685856351,-48.7975251916014
3.01000000000001,30.5562720038272,18.4201119930071,-48.9763839968343
3.02000000000001,30.563541552129,18.5868962466606,-49.1504377987896
3.03000000000001,30.5684559869656,18.7539688760898,-49.3224248630554
3.04000000000001,30.5719083909995,18.9221263720807,-49.4940347630802
3.05000000000001,30.5767772554426,19.0929857777981,-49.6697630332407
3.06000000000001,30.5820066035615,19.2659280294729,-49.8479346330344
3.07000000000001,30.5856029407418,19.4392738594283,-50.0248768001701
3.08000000000001,30.5862835365692,19.6102576254459,-50.1965411620152
3.09000000000001,30.5847658504999,19.7784008711949,-50.3631667216948
3.10000000000001,30.5825006832689,19.9461604024491,-50.528661085718
3.11000000000001,30.5807291055933,20.1150672251149,-50.6957963307082
3.12000000000001,30.579385913094,20.2862447554111,-50.8656306685052
3.13000000000001,30.5765542783517,20.4585830944343,-51.035137372786
3.14000000000001,30.5725415948428,20.6310483907302,-51.203589985573
3.15000000000001,30.5668938880077,20.8019217911349,-51.3688156791426
